57,57,57,56,55,55,55,54,54,54,55,55,56,56,57,57,58,58,58,58,58,57,57,56,56,55,55,54,54,54,54,54,55,56,56,57,57,58,58,58,58,58,57,57,56,56,55,55,54,54,54,54,54,55,56,56,57,58,58,58,58,58,57,57,56,55,55,55,54,54,53,53,53,54,54,55,56,57,57,58,58,58,58,58,57,57,56,56,55,55,54,54,54,54,55,55,56,57,57,58,58,58,58,58,58,57,57,56,56,55,54,54,54,54,55,56,56,57,57,58,58,58,58,58,58,57,57,57,56,55,55,54,54,53,54,54,55,55,56,57,57,57,57,57,57,57,56,56,55,55,55,55,54,54,55,55,55,56,56,56,56,57,58,58,61,61,62,62,64,64,65,67,68,68,68,68,68,68,67,66,65,65,65,65,62,61,61,60,60,60,60,59,59,59,59,60,62,63,64,65,65,65,65,64,63,63,63,61,60,58,58,57,56,56,56,56,55,55,56,56,56,57,57,57,57,58,58,58,58,57,57,56,55,55,55,54,54,53,52,52,52,53,54,55,57,58,58,59,60,60,59,59,58,57,57,56,56,55,55,55,57,58,59,60,60,59,59,58,57,57,56,55,55,55,54,54,54,54,54,54,54,55,56,56,57,58,59,59,59,59,59,58,57,56,56,55,55,54,54,54,54,54,54,54,55,56,56,57,57,58,58,58,58,58,58,57,57,57,56,56,56,56,56,56,56,57,57,58,59,59,59,59,59,59,58,58,58,57,57,56,56,56,56,56,56,57,57,57,57,57,58,58,58,67,67,82,87,89,89,88,85,82,78,78,75,71,68,65,60,58,57,56,56,56,56,56,56,57,57,57,58,58,58,58,58,58,58,58,58,58,58,58,58,58,59,59,59,59,59,59,61,62,63,64,64,64,63,63,62,62,62,62,62,62,62,61,61,60,60,60,60,59,58,58,58,58,58,58,58,58,58,59,60,63,67,71,76,76,79,79,78,76,73,71,69,66,64,63,63,59,59,58,57,57,57,57,57,58,58,58,58,58,58,60,62,62,70,70,70,80,92,92,106,117,127,127,122,115,107,100,97,97,97,98,98,101,103,104,104,104,105,107,108,108,98,98,98,93,94,99,108,108,129,129,138,144,148,146,139,130,118,105,93,93,81,63,63,51,51,43,41,39,39,38,37,37,37,35,33,32,30,28,26,24,22,22,21,19,18,16,15,15,14,14,14,14,14,14,14,14,14,14,15,15,15,15,16,16,16,16,16,16,16,15,15,15,15,15,15,15,15,15,15,15,15,15,15,15,15,15,15,15,15,15,15,15,15,15,15,15,15,15,15,15,15,15,15,15,15,15,15,15,15,15,15,15,15,15,15,15,15,15,15,15,15,15,15,15,15,15,15,15,15,15,15,15,15,15,15,15,15,15,15,15,15,15,16,16,15,15,15,15,15,15,15,15,15,15,15,15,15,15,15,15,15,15,15,15,15,15,15,15,15,15,15,15,15,15,15,15,15,16,15,15,15,15,15,15,15,15,15,15,15,15,15,15,15,15,15,15,15,15,15,15,15,15,15,15,15,15,15,15,15,15,15,15,15,15,15,15,15,15,15,16,17,19,22,22,24,24,24,23,22,22,21,20,19,19,18,18,17,17,16,16,16,15,15,15,15,15,15,15,15,15,15,15,15,15,16,16,16,16,16,17,17,20,22,24,25,25,25,24,24,23,22,21,20,19,18,17,17,16,16,16,16,16,16,16,16,16,16,16,16,16,16,16,16,16,15,16,16,16,16,16,18,19,21,21,21,21,21,20,20,19,19,18,18,17,17,16,16,16,15,15,15,15,15,15,15,15,15,15,15,15,15,15,15,15,15,16,16,17,20,24,27,29,29,31,31,29,28,27,25,24,24,21,19,18,18,18,18,17,17,17,17,17,17,17,17,17,17,17,16,16,17,17,17,18,18,19,20,21,25,27,28,27,26,25,23,23,20,20,18,18,17,16,16,16,16,15,15,16,17,17,18,19,19,19,19,19,19,19,19,19,21,24,26,28,28,28,28,27,25,22,21,20,19,19,19,18,18,17,17,17,17,17,17,17,17,17,17,17,17,17,17,19,21,21,28,28,28,27,27,26,23,22,20,20,18,17,17,17,17,17,17,17,17,16,16,16,16,16,16,16,17,17,17,17,18,20,23,26,28,30,31,31,31,31,28,28,24,22,21,19,19,19,19,19,18,18,18,18,19,19,19,19,18,17,17,17,17,17,16,16,16,16,17,18,18,19,23,23,30,35,40,46,53,63,63,87,87,99,122,122,140,146,149,150,148,148,143,128,128,112,106,101,95,89,83,78,78,73,67,66,66,67,68,68,67,65,62,62,57,52,43,39,35,33,30,29,29,26,26,25,25,26,27,31,37,43,43,61,61,91,105,117,130,142,152,160,164,166,166,167,165,160,151,122,122,116,111,103,95,86,79,79,66,60,60,49,45,41,41,37,31,31,28,25,24,24,22,21,21,21,21,21,21,21,21,22,22,22,22,22,22,22,22,22,22,22,22,22,23,23,23,23,23,23,23,23,23,23,23,23,23,23,23,23,23,25,25,26,26,26,25,25,25,25,25,25,25,25,25,25,26,26,27,27,27,27,28,28,28,27,26,25,24,23,22,22,22,22,21,21,21,21,22,22,22,22,23,25,26,27,27,26,25,24,24,23,22,22,22,22,23,24,25,26,26,26,26,25,25,25,24,24,26,26,28,28,28,28,27,27,27,27,26,27,29,32,34,34,34,34,33,32,29,28,28,29,30,30,29,28,27,27,25,25,23,23,25,27,28,28,28,28,28,27,25,25,25,27,29,31,32,32,32,29,29,27,27,29,31,34,36,36,36,34,32,31,31,31,32,32,32,31,30,29,29,28,28,30,32,34,35,35,33,33,32,29,29,29,30,32,33,33,32,32,30,30,30,32,34,36,36,35,33,31,30,30,32,32,37,38,38,37,36,34,34,32,33,33,34,34,33,32,31,31,32,33,34,34,33,33,30,30,27,26,25,26,29,32,35,35,39,39,39,38,36,34,33,33,34,36,36,40,40,41,39,37,35,35,34,34,35,37,36,36,32,30,29,29,32,34,37,38,38,37,35,34,33,33,35,36,36,37,37,37,35,35,33,32,33,33,34,36,38,38,37,37,34,33,34,36,39,41,41,41,41,37,34,33,33,36,43,53,53,61,66,66,59,54,48,44,41,42,45,48,48,49,49,45,42,39,37,35,34,34,34,33,32,32,35,38,40,41,41,40,39,37,37,32,32,27,26,24,24,23,22,22,22,22,22,22,23,23,23,22,22,22,22,23,23,23,23,24,24,24,24,24,24,24,24,24,24,23,23,23,24,24,24,25,25,25,25,25,25,26,26,25,25,24,24,24,23,24,24,24,24,24,24,24,23,23,23,23,23,23,23,23,23,23,23,23,23,23,23,23,23,23,23,23,23,23,22,22,22,22,22,22,22,22,22,22,22,22,22,22,22,22,22,22,22,22,22,22,22,22,21,21,21,21,21,21,21,21,21,21,21,21,21,21,21,21,21,21,21,21,21,21,21,21,21,21,21,21,21,21,21,21,21,21,21,21,21,21,21,21,22,22,22,22,22,22,22,21,21,21,21,21,21,21,21,21,21,21,22,22,22,22,22,22,21,21,21,21,21,21,21,21,21,21,21,21,21,21,21,22,22,22,22,22,21,21,21,21,21,21,21,21,21,21,22,22,22,22,22,22,22,22,22,22,22,22,22,21,21,21,21,21,21,22,22,22,22,22,22,22,21,21,21,21,21,21,21,21,21,21,21,21,21,21,21,21,21,21,21,21,21,21,21,21,21,21,21,21,21,21,21,22,22,22,22,22,21,21,21,21,21,21,21,21,21,21,21,21,21,21,21,21,21,21,21,21,21,21,21,21,21,21,21,21,21,21,21,21,22,22,22,22,22,22,22,22,22,22,21,21,21,21,21,21,21,21,21,22,22,22,22,22,22,22,22,22,22,21,21,21,21,21,21,21,21,21,21,22,22,22,22,22,22,22,22,22,21,21,21,21,21,21,21,21,21,21,22,22,22,22,22,21,21,21,21,21,21,21,21,21,21,21,21,21,21,21,21,21,21,21,21,21,21,21,21,21,21,21,21,21,21,21,21,21,22,22,22,22,22,21,21,21,21,21,21,21,21,21,21,21,22,23,24,25,25,25,25,25,25,24,24,23,23,23,22,22,22,22,22,21,21,21,22,22,22,22,22,22,22,24,25,26,26,26,25,25,25,24,24,23,23,23,23,22,22,22,22,22,22,22,22,22,22,22,22,22,24,27,27,34,37,37,38,39,39,39,36,36,33,31,29,29,26,26,26,25,24,23,23,23,23,23,22,22,22,22,23,25,28,30,30,34,34,34,34,31,31,30,28,28,25,25,24,24,23,22,22,23,23,23,23,23,23,23,23,24,26,39,48,48,56,56,53,49,49,42,42,37,37,33,30,28,28,25,25,28,28,36,48,73,79,82,82,78,75,75,68,68,61,61,57,53,47,44,42,40,37,35,33,31,31,28,28,29,32,36,41,44,48,52,55,55,58,64,66,69,72,74,75,75,74,72,72,71,71,76,80,80,87,88,88,88,88,87,87,88,88,86,86,89,95,95,109,109,115,121,120,120,116,103,96,89,89,84,80,78,71,66,62,58,55,54,55,55,57,60,64,76,82,86,89,91,92,94,95,95,96,95,93,82,74,67,60,53,48,43,43,39,32,29,26,24,23,21,21,18,17,17,17,17,21,23,23,25,28,28,29,29,31,33,37,40,43,45,45,44,43,43,42,41,40,39,39,37,35,35,34,31,29,29,26,26,25,25,23,22,22,19,18,18,16,16,15,14,14,14,14,14,15,15,15,14,14,14,14,14,14,14,14,15,16,17,17,18,18,20,19,18,17,17,18,18,26,26,34,36,36,35,33,31,30,30,29,28,27,26,26,24,23,23,20,19,19,18,18,19,19,18,18,18,17,17,17,17,17,17,17,17,17,17,17,16,16,15,15,15,15,15,14,14,14,14,14,14,14,14,14,14,14,14,14,14,14,13,13,13,13,13,13,13,13,13,13,13,13,13,13,13,13,13,13,13,13,13,13,13,13,13,13,13,13,13,13,13,13,13,13,13,13,13,13,13,13,13,13,13,13,13,13,13,13,13,13,13,13,13,13,13,13,13,13,13,13,13,13,13,13,13,13,13,13,13,13,13,13,13,13,13,13,14,14,14,14,14,14,14,14,13,13,13,13,13,13,13,13,13,13,13,13,13,13,13,13,13,13,13,13,13,13,13,13,13,13,13,13,13,13,13,13,13,13,13,13,13,13,13,13,13,13,13,13,13,13,13,13,13,13,13,13,13,13,13,13,13,13,13,13,13,13,13,13,13,13,12,12,12,12,12,12,12,12,12,12,12,12,12,12,12,12,12,12,12,12,12,12,12,12,12,12,13,13,13,13,13,13,13,13,13,13,13,13,13,13,13,13,13,13,13,13,13,13,13,13,13,13,13,12,12,12,12,12,12,13,13,14,15,16,18,20,23,26,26,31,32,32,34,36,37,37,37,36,36,34,31,26,24,24,20,19,19,16,16,16,16,16,17,17,18,18,18,18,18,19,18,17,17,17,16,16,16,16,16,15,15,14,14,13,13,13,13,12,12,12,12,12,12,13,13,14,14,14,14,14,15,15,15,15,16,16,16,16,16,15,15,15,14,14,14,14,13,13,13,13,13,13,13,13,13,13,13,13,13,13,13,13,13,13,13,13,13,13,13,13,12,12,12,12,13,13,13,13,13,13,13,13,13,13,13,13,13,13,13,13,13,13,13,13,13,13,13,13,12,12,12,12,12,13,13,13,13,13,13,13,13,14,15,15,18,19,19,20,20,20,20,20,19,19,19,18,18,18,18,18,18,17,17,17,16,16,16,16,16,16,16,17,17,16,16,16,16,17,17,18,18,17,17,17,17,16,16,16,16,16,16,16,16,16,16,16,16,16,16,16,16,15,15,15,15,15,15,15,15,15,14,14,14,14,14,14,15,15,16,16,16,16,16,16,16,16,16,16,15,15,15,15,15,15,15,15,14,14,14,14,14,14,14,14,14,14,15,15,16,16,17,17,17,17,17,16,16,15,14,14,14,14,14,14,14,14,15,15,15,15,15,15,15,15,14,14,13,13,13,13,13,13,13,13,13,13,14,14,20,20,25,32,33,33,33,32,32,28,26,26,24,20,18,17,16,15,14,14,14,14,14,14,15,17,19,19,22,23,23,24,24,24,24,24,23,22,22,19,18,18,16,14,12,12,10,9,8,8,8,8,8,8,8,8,9,9,9,9,9,9,9,9,9,9,9,10,10,10,10,10,10,10,10,10,10,10,10,10,10,10,10,9,9,9,9,9,9,8,8,8,8,8,8,8,8,8,8,8,8,8,8,8,8,8,8,8,8,8,8,8,8,8,8,8,8,8,8,8,8,8,8,8,8,8,8,8,8,8,8,8,9,9,9,10,10,10,10,10,10,9,9,9,9,9,9,9,8,8,8,9,9,9,9,9,9,9,8,8,8,8,8,8,8,8,9,9,9,10,10,9,9,9,9,9,9,9,9,9,9,9,9,9,9,9,9,9,9,9,8,8,8,8,8,8,8,8,8,8,9,9,9,9,9,9,9,8,8,8,8,8,8,8,9,9,10,10,11,11,11,12,13,13,14,14,14,14,14,15,15,15,15,15,15,16,16,16,16,15,15,15,16,16,15,15,15,15,15,15,15,15,15,15,14,14,14,14,14,14,14,14,14,14,14,14,14,14,14,13,13,13,13,13,13,13,13,13,13,13,13,13,13,13,13,13,13,13,13,13,13,13,13,13,13,13,13,13,13,13,13,13,13,13,13,13,13,13,13,13,13,13,14,14,14,14,14,14,14,14,14,14,14,14,14,14,14,14,14,15,15,15,16,16,16,16,16,17,17,17,17,17,17,17,17,16,17,22,25,28,29,29,30,30,30,32,33,36,35,34,33,32,31,30,30,28,28,27,25,24,21,20,20,20,21,21,21,21,22,22,23,22,22,21,21,21,20,19,18,17,16,15,15,13,13,13,13,13,12,12,12,12,11,11,11,11,11,10,10,10,10,10,10,10,10,11,11,11,11,11,12,15,17,18,20,24,29,35,35,42,42,44,44,41,38,38,31,27,24,21,21,19,17,16,16,15,16,16,18,21,24,24,27,27,28,28,28,27,27,24,22,22,20,17,15,12,10,10,8,7,7,7,7,6,6,6,7,12,16,19,22,25,27,27,28,28,29,29,29,29,29,28,27,25,25,25,25,27,28,28,28,28,28,28,28,28,27,26,25,24,23,22,21,20,20,22,26,34,38,38,43,44,45,44,44,43,41,39,34,31,28,25,22,20,18,18,16,14,13,11,10,10,9,9,9,9,9,9,9,9,9,9,9,8,8,8,8,8,8,8,8,8,7,7,7,7,7,7,7,7,7,7,7,7,7,7,7,7,7,7,7,7,7,7,7,7,7,7,7,7,7,7,7,7,7,7,7,7,7,7,7,7,7,7,7,8,8,8,8,8,8,8,8,8,8,8,8,8,8,8,8,8,8,8,7,7,7,7,7,7,7,7,7,7,7,7,7,7,7,7,7,7,7,7,7,7,7,7,7,7,7,7,7,7,7,7,7,7,7,7,7,7,7,7,7,7,7,7,7,7,7,7,7,7,7,7,7,7,7,7,7,7,7,7,7,7,7,7,7,7,7,7,7,7,7,7,7,7,7,7,7,7,7,7,7,7,7,7,7,7,7,7,7,7,7,7,7,7,7,7,7,7,7,7,7,7,7,7,7,7,7,7,7,7,7,7,7,7,7,7,7,7,7,7,7,7,7,7,7,7,7,7,7,7,7,7,7,7,8,8,8,8,8,8,8,8,8,8,7,7,7,7,7,7,7,7,8,8,8,8,8,7,7,7,7,7,7,7,7,7,7,7,7,7,7,7,7,7,7,7,7,7,7,7,7,7,7,7,7,7,7,7,7,7,7,7,7,7,7,7,7,7,7,7,7,7,7,7,7,7,7,7,7,7,7,7,7,7,7,7,7,7,7,7,7,7,7,7,7,7,7,7,7,7,7,7,7,7,7,7,7,7,7,7,7,7,7,7,7,7,7,7,7,7,7,7,7,7,7,7,7,7,7,7,7,7,7,7,7,7,7,7,7,7,7,7,7,7,7,7,7,7,7,7,7,7,7,7,7,7,7,7,7,7,7,7,7,7,7,7,7,7,7,7,7,7,7,7,7,7,7,7,7,7,7,7,8,8,8,8,8,8,8,8,7,7,7,7,7,7,7,7,7,7,7,7,7,7,7,7,7,7,7,7,7,7,7,7,7,7,7,7,7,7,7,7,7,7,7,7,7,7,7,7,7,7,7,7,7,7,7,7,7,7,7,7,7,7,7,7,7,7,7,8,8,8,9,9,10,13,13,18,18,21,22,22,23,22,22,20,20,19,16,16,14,14,13,13,13,13,13,13,13,13,13,13,13,13,13,13,14,14,14,14,13,13,13,12,12,12,12,11,11,11,10,10,10,10,10,10,10,10,10,9,9,9,9,9,9,9,9,9,9,9,9,8,8,8,8,8,8,8,8,8,8,8,8,8,8,8,8,8,9,9,9,9,9,9,9,9,9,10,10,11,11,11,12,12,11,11,11,10,10,10,10,10,9,9,9,9,9,9,9,9,8,8,8,7,7,7,7,7,7,8,8,8,9,9,9,10,10,10,10,10,11,14,14,16,23,28,28,41,47,52,54,54,53,51,51,45,45,43,41,40,38,38,37,35,35,36,40,40,43,49,49,50,50,48,48,48,49,49,50,49,46,46,41,41,38,37,37,39,39,40,38,38,35,33,33,31,32,32,35,35,37,41,41,43,43,43,43,42,38,36,33,30,30,23,23,18,16,16,12,11,11,11,10,10,10,11,11,12,12,12,13,13,13,14,14,15,15,16,16,16,16,15,15,14,14,12,12,12,13,13,15,15,17,18,20,20,20,21,21,21,22,22,21,21,21,21,19,18,17,15,14,13,12,12,11,10,10,11,12,12,13,13,13,12,12,12,10,10,9,8,8,7,7,7,7,7,7,7,8,10,11,12,12,13,14,14,15,15,17,17,19,20,20,19,19,18,15,14,14,12,9,8,8,6,6,6,4,4,4,4,4,4,4,4,4,4,4,4,4,4,4,4,4,3,3,3,3,3,3,3,3,4,4,4,4,4,4,4,4,4,4,4,4,3,3,3,4,4,4,3,3,3,3,4,4,4,4,4,4,4,4,5,5,5,5,5,5,5,4,4,4,4,5,5,5,5,5,5,5,4,4,4,3,3,3,3,3,3,3,3,3,3,3,2,2,2,2,2,2,2,3,3,3,4,4,4,4,3,3,3,3,3,3,3,3,3,3,3,3,2,2,2,2,2,2,2,2,2,2,2,2,2,2,2,2,2,2,2,2,2,2,3,3,3,3,3,3,3,3,3,3,3,2,2,2,2,2,2,2,2,2,2,2,3,3,3,3,3,3,3,3,3,3,3,3,3,3,3,3,3,3,2,2,2,2,2,2,2,2,2,2,2,2,2,2,2,2,2,2,2,2,2,2,2,2,2,2,2,2,2,2,2,2,2,3,3,3,3,3,3,3,3,3,2,2,2,2,2,2,1,1,1,1,1,1,1,1,1,1,1,1,2,2,2,2,2,2,1,1,1,1,1,1,1,1,1,1,1,1,1,1,1,1,1,1,1,1,1,1,1,1,1,1,1,1,2,2,2,2,2,2,2,2,2,2,2,2,2,2,2,2,1,1,1,1,1,1,1,1,1,1,1,1,1,2,1,1,1,1,1,1,2,2,2,1,1,1,1,1,1,1,1,1,1,1,1,1,1,1,1,1,1,1,1,1,1,1,1,1,1,1,1,2,2,2,1,1,1,1,1,1,1,1,1,1,1,1,1,1,1,1,1,1,1,1,1,1,1,1,1,2,2,2,2,2,2,2,2,2,2,2,2,2,2,2,2,2,2,2,2,2,2,2,2,2,2,2,2,2,2,2,2,2,2,2,2,2,1,1,1,1,1,1,1,1,1,1,2,2,2,2,1,1,1,1,1,1,1,1,1,1,1,2,2,2,2,2,2,2,2,2,2,2,2,2,2,2,2,2,2,2,2,2,2,2,2,2,3,3,3,3,3,3,3,3,3,3,3,3,3,3,3,3,3,3,3,3,3,3,3,3,3,3,3,3,3,3,3,2,2,2,2,2,2,2,2,2,2,2,2,2,2,2,2,2,2,2,2,2,2,2,2,2,3,3,3,3,3,3,3,3,3,4,4,5,5,7,8,9,9,10,11,11,15,15,16,17,18,18,17,17,17,16,16,16,16,16,16,15,14,14,13,12,12,11,11,11,11,11,11,11,11,11,11,11,11,11,11,11,11,10,9,8,8,8,8,8,8,9,9,9,9,9,9,9,9,9,9,9,9,8,7,7,8,9,9,10,11,11,11,12,13,14,15,14,14,13,12,12,12,11,10,10,9,9,8,8,8,8,8,9,9,10,11,11,13,13,12,12,12,12,13,13,14,14,14,13,13,14,14,14,14,14,14,13,13,11,11,11,11,11,12,12,13,13,13,13,13,13,13,12,12,12,12,12,11,12,13,13,16,17,18,18,18,18,18,18,17,15,14,13,12,10,10,9,9,9,9,10,11,11,11,11,11,12,13,14,17,17,17,17,16,16,16,14,14,13,13,13,14,14,15,14,14,14,14,15,15,15,15,14,13,13,13,13,13,14,15,17,17,18,18,18,18,18,18,18,18,17,16,14,13,13,11,11,11,11,11,11,11,12,12,12,12,12,12,12,11,11,10,10,10,9,9,9,9,9,9,9,10,10,10,10,10,10,10,10,10,9,9,9,9,9,9,8,8,8,7,7,7,7,7,7,7,7,7,7,7,7,7,7,7,7,7,7,7,7,7,7,7,7,7,7,7,8,8,8,8,8,8,8,8,8,8,7,7,7,7,7,7,7,7,7,7,7,7,7,7,7,7,7,7,7,7,7,7,7,7,7,7,7,7,7,7,7,7,7,8,8,8,8,7,7,8,8,8,8,8,8,8,8,8,8,8,8,8,8,8,8,8,8,7,7,7,7,7,7,7,7,7,7,7,7,7,7,7,7,7,7,7,7,7,7,7,7,7,7,7,7,7,8,8,8,8,8,8,8,8,8,7,7,7,7,7,7,7,7,7,7,7,7,7,7,7,8,8,8,8,8,8,8,8,9,9,8,8,8,8,9,9,9,10,10,10,9,9,10,10,12,14,14,16,16,16,16,16,16,16,16,16,16,16,16,16,15,15,15,16,16,18,18,18,17,17,16,15,15,14,14,13,13,12,12,12,11,11,10,10,9,9,9,9,9,9,9,9,9,9,9,9,8,8,8,8,8,8,9,10,10,11,11,11,12,12,12,11,11,11,10,10,9,8,8,8,7,7,7,7,7,6,6,6,7,7,7,7,6,6,7,7,7,7,7,7,7,7,7,7,7,7,7,7,7,7,7,7,7,7,7,7,7,7,7,7,8,13,13,20,22,22,26,26,28,30,34,37,37,41,50,50,51,51,53,56,61,64,66,66,67,66,66,63,63,60,57,53,45,42,39,38,38,38,39,39,40,40,40,40,38,36,36,30,28,28,25,22,17,14,14,9,9,9,8,7,7,7,6,7,7,7,7,7,7,7,8,8,8,9,9,10,10,11,11,11,11,11,10,10,10,9,8,8,8,7,7,7,7,7,7,7,7,7,7,7,7,7,7,7,7,7,7,8,8,8,8,8,7,7,7,7,7,7,7,7,7,7,7,7,7,7,7,7,7,8,8,9,9,9,9,9,9,9,9,10,11,11,11,10,10,10,10,10,11,12,13,15,15,15,16,16,17,17,18,18,18,17,16,15,14,15,15,15,17,18,20,20,20,20,20,21,21,21,21,21,21,19,17,17,15,16,16,18,19,19,19,19,19,19,19,20,20,20,20,20,19,18,18,17,17,18,19,19,21,22,22,21,21,21,21,20,19,19,19,18,18,18,18,19,21,22,24,25,26,26,25,25,25,24,24,25,25,25,26,26,26,25,25,25,24,22,22,23,23,24,24,23,23,23,23,24,25,27,28,30,30,30,29,29,28,27,25,23,22,22,21,20,20,19,19,21,21,22,25,27,28,28,28,28,25,25,24,22,21,21,20,19,19,18,19,19,21,21,24,25,25,27,28,29,29,29,28,28,26,26,27,30,30,31,33,35,36,38,38,42,44,44,46,46,46,46,46,50,58,70,82,94,107,136,148,153,153,148,140,140,129,117,104,78,68,59,52,45,39,33,33,24,21,21,19,16,15,16,16,18,21,21,23,25,27,29,32,32,32,31,31,29,29,28,27,25,25,24,24,25,25,25,27,27,27,27,27,27,27,26,26,25,24,23,23,23,23,22,22,22,22,22,25,25,25,24,24,23,23,22,22,22,23,23,25,26,27,28,28,27,27,28,29,29,29,29,28,27,27,27,26,25,24,23,24,24,24,25,25,25,25,25,26,26,27,28,28,28,28,28,28,26,25,24,24,24,23,22,22,22,22,22,22,26,26,26,26,26,26,25,25,23,23,21,21,20,20,20,20,20,21,21,24,25,25,27,26,26,25,25,25,23,23,23,23,24,24,24,24,24,23,23,24,25,26,26,25,24,24,22,22,22,21,21,21,22,22,23,23,23,23,24,24,26,26,27,27,27,25,25,22,21,21,21,21,21,21,21,21,21,22,24,24,26,29,29,30,30,29,29,27,26,26,24,23,23,24,24,24,24,24,24,26,27,27,26,25,24,24,24,24,23,23,23,24,24,26,26,27,27,27,27,29,29,28,27,26,26,25,25,24,23,23,23,24,26,27,28,29,29,29,30,31,31,30,30,29,29,29,29,29,29,28,28,29,30,31,31,31,31,31,32,32,32,31,30,29,29,28,28,28,27,27,26,26,27,28,29,30,30,31,32,32,33,33,32,32,31,31,28,27,27,23,23,23,24,25,26,27,28,30,31,32,32,32,32,33,34,34,33,31,31,31,31,31,30,28,26,24,21,20,19,18,18,18,18,18,18,17,17,17,16,15,15,15,13,13,13,13,13,13,14,14,14,15,15,15,16,18,20,22,27,27,27,29,29,29,30,28,28,27,27,28,31,31,38,41,45,48,49,49,49,44,44,41,38,33,33,29,29,29,29,28,27,19,19,19,19,19,19,19,18,19,21,22,24,26,27,27,29,29,29,29,28,29,29,30,30,33,33,33,32,32,30,28,25,21,21,18,17,16,16,14,14,14,13,13,13,13,13,13,14,14,14,14,13,13,13,13,13,13,13,13,13,15,15,20,20,23,25,28,28,31,31,32,34,34,34,33,33,35,37,38,38,44,46,46,46,46,43,42,40,39,39,36,36,36,37,37,38,37,37,37,37,37,37,37,37,37,37,45,45,64,94,94,94,94,98,98,96,91,86,82,79,83,92,102,102,109,112,111,107,101,88,80,73,68,68,78,78,84,90,105,105,110,113,113,106,106,100,100,100,106,110,107,103,98,94,94,86,86,82,78,74,67,65,62,62,60,60,62,64,66,67,64,64,55,49,43,37,31,31,26,16,16,13,9,5,3,2,1,0,0,0,0,0,0,0,0,0,0,0,0,0,0,0,0,0,0,0,0,0,0,0,0,0,0,0,0,0,0,0,0,0,0,0,0,0,0,0,0,0,0,0,0,0,0,0,0,0,0,0,0,0,0,0,0,0,0,0,0,0,0,0,0,0,0,0,0,0,0,0,0,0,0,0,0,0,0,0,0,0,0,0,0,0,0,0,0,0,0,0,0,0,0,0,0,0,0,0,0,0,0,0,0,0,0,0,0,0,0,0,0,0,0,0,0,0,0,0,0,0,0,0,0,0,0,0,0,0,0,0,0,0,0,0,0,0,0,0,0,0,0,0,0,0,0,0,0,0,0,0,0,0,0,0,0,0,0,0,0,0,0,0,0,0,0,0,0,0,0,0,0,0,0,0,0,0,0,0,0,0,0,0,0,0,0,0,0,0,0,0,0,0,0,0,0,0,0,0,0,0,0,0,0,0,0,0,0,0,0,0,0,0,0,0,0,0,0,0,0,0,0,0,0,0,0,0,0,0,0,0,0,0,0,0,0,0,0,0,0,0,0,0,0,0,0,0,0,0,0,0,0,0,0,0,0,0,0,0,0,0,0,0,0,0,0,0,0,0,0,0,0,0,0,0,0,0,0,0,0,0,0,0,0,0,0,0,0,0,0,0,0,0,0,0,0,0,0,0,0,0,0,0,0,0,0,0,0,0,0,0,0,0,0,0,0,0,0,0,0,0,0,0,0,0,0,0,0,0,0,0,0,0,0,0,0,0,0,0,0,0,0,0,0,0,0,0,0,0,0,0,0,0,0,0,0,0,0,0,0,0,0,0,0,0,0,0,0,0,0,0,0,0,0,0,0,0,0,0,0,0,0,0,0,0,0,0,0,0,0,0,0,0,0,0,0,0,0,0,0,0,0,0,0,0,0,0,0,0,0,0,0,0,0,0,0,0,0,0,0,0,0,0,0,0,0,0,0,0,0,0,0,0,0,0,0,0,0,0,0,0,0,0,0,0,0,0,0,0,0,0,0,0,0,0,0,0,0,0,0,0,0,0,0,0,0,0,0,0,0,0,0,0,0,0,0,0,0,0,0,0,0,0,0,0,0,0,0,0,0,0,0,0,0,0,0,0,0,0,0,0,0,0,0,0,0,0,0,0,0,0,0,0,0,0,0,0,0,0,0,0,0,0,0,0,0,0,0,0,0,0,0,0,0,0,0,0,0,0,0,0,0,0,0,0,0,0,0,0,0,0,0,0,0,0,0,0,0,0,0,0,0,0,0,0,0,0,0,0,0,0,0,0,0,0,0,0,0,0,0,0,0,0,0,0,0,0,0,0,0,0,0,0,0,0,0,0,0,0,0,0,0,0,0,0,0,0,0,0,0,0,0,0,0,0,0,0,0,0,0,0,0,0,0,0,0,0,0,0,0,0,0,0,0,0,0,0,0,0,0,0,0,0,0,0,0,0,0,0,0,0,0,0,0,0,0,0,0,0,0,0,0,0,0,0,0,0,0,0,0,0,0,0,0,0,0,0,0,0,0,0,0,0,0,0,0,0,0,0,0,0,0,0,0,0,0,0,0,0,0,0,0,0,0,0,0,0,0,0,0,0,0,0,0,0,0,0,0,0,0,0,0,0,0,0,0,0,0,0,0,0,0,0,0,0,0,0,0,0,0,0,0,0,0,0,0,0,0,0,0,0,0,0,0,0,0,0,0,0,0,0,0,0,0,0,0,0,0,0,0,0,0,0,0,0,0,0,0,0,0,0,0,0,0,0,0,0,0,0,0,0,0,0,0,0,0,0,0,0,0,0,0,0,0,0,0,0,0,0,0,0,0,0,0,0,0,0,0,0,0,0,0,0,0,0,0,0,0,0,0,0,0,0,0,0,0,0,0,0,0,0,0,0,0,0,0,0,0,0,0,0,0,0,0,0,0,0,0,0,0,0,0,0,0,0,0,0,0,0,0,0,0,0,0,0,0,0,0,0,0,0,0,0,0,0,0,0,0,0,0,0,0,0,0,0,0,0,0,0,0